%time,field.target0,field.target1,field.target2,field.target3,field.is_traj_end
1704359017950361149,-0.00018,-0.00018,-0.00018,-0.00018,0
1704359018450382342,-0.00047,-0.00047,-0.00047,-0.00047,0
1704359018950895695,-0.00102,-0.00102,-0.00102,-0.00102,0
1704359019450722658,-0.00189,-0.00189,-0.00189,-0.00189,0
1704359019952930036,-0.00313,-0.00313,-0.00313,-0.00313,0
1704359020451139172,-0.00478,-0.00478,-0.00478,-0.00478,0
1704359020951165781,-0.00686,-0.00686,-0.00686,-0.00686,0
1704359021451267402,-0.0094,-0.0094,-0.0094,-0.0094,0
1704359021951465938,-0.0124,-0.0124,-0.0124,-0.0124,0
1704359022451540099,-0.01585,-0.01585,-0.01585,-0.01585,0
1704359022951650399,-0.01976,-0.01976,-0.01976,-0.01976,0
1704359023452794990,-0.02409,-0.02409,-0.02409,-0.02409,0
1704359023951920242,-0.02881,-0.02881,-0.02881,-0.02881,0
1704359024452110172,-0.0339,-0.0339,-0.0339,-0.0339,0
1704359024952383624,-0.03932,-0.03932,-0.03932,-0.03932,0
1704359025452328480,-0.045,-0.045,-0.045,-0.045,0
1704359025952417394,-0.05091,-0.05091,-0.05091,-0.05091,0
1704359026452582589,-0.05699,-0.05699,-0.05699,-0.05699,0
1704359026952685774,-0.06318,-0.06318,-0.06318,-0.06318,0
1704359027452832014,-0.06943,-0.06943,-0.06943,-0.06943,0
1704359027952924613,-0.07568,-0.07568,-0.07568,-0.07568,0
1704359028453909203,-0.08187,-0.08187,-0.08187,-0.08187,0
1704359028953226899,-0.08797,-0.08797,-0.08797,-0.08797,0
1704359029453233960,-0.0939,-0.0939,-0.0939,-0.0939,0
1704359029953370730,-0.09964,-0.09964,-0.09964,-0.09964,0
1704359030453554326,-0.10515,-0.10515,-0.10515,-0.10515,0
1704359030953581842,-0.11038,-0.11038,-0.11038,-0.11038,0
1704359031453687623,-0.11532,-0.11532,-0.11532,-0.11532,0
1704359031953967100,-0.11993,-0.11993,-0.11993,-0.11993,0
1704359032454185168,-0.12422,-0.12422,-0.12422,-0.12422,0
1704359032954255691,-0.12816,-0.12816,-0.12816,-0.12816,0
1704359033454311680,-0.13367,-0.13367,-0.13367,-0.13367,0
1704359033954445564,-0.14154,-0.14154,-0.14154,-0.14154,0
1704359034454537264,-0.1496,-0.1496,-0.1496,-0.1496,0
1704359034955783335,-0.15725,-0.15725,-0.15725,-0.15725,0
1704359035455004860,-0.16432,-0.16432,-0.16432,-0.16432,0
1704359035955189506,-0.17077,-0.17077,-0.17077,-0.17077,0
1704359036455211160,-0.17654,-0.17654,-0.17654,-0.17654,0
1704359036955329213,-0.18164,-0.18164,-0.18164,-0.18164,0
1704359037455499499,-0.18604,-0.18604,-0.18604,-0.18604,0
1704359037955554687,-0.18977,-0.18977,-0.18977,-0.18977,0
1704359038455829657,-0.19284,-0.19284,-0.19284,-0.19284,0
1704359038956279337,-0.19527,-0.19527,-0.19527,-0.19527,0
1704359039455939870,-0.19712,-0.19712,-0.19712,-0.19712,0
1704359039956045580,-0.19843,-0.19843,-0.19843,-0.19843,0
1704359040456104642,-0.19929,-0.19929,-0.19929,-0.19929,0
1704359040956193173,-0.19977,-0.19977,-0.19977,-0.19977,0
1704359041456321194,-0.19998,-0.19998,-0.19998,-0.19998,0
1704359041956438656,-0.20003,-0.20003,-0.20003,-0.20003,0
1704359042456633498,-0.20004,-0.20004,-0.20004,-0.20004,0
1704359042956620846,-0.20007,-0.20003,-0.20007,-0.20003,0
1704359043456697775,-0.2002,-0.19989,-0.2002,-0.19989,0
1704359043956778149,-0.20054,-0.19956,-0.20054,-0.19956,0
1704359044456933925,-0.20114,-0.19895,-0.20114,-0.19895,0
1704359044956978756,-0.20207,-0.19801,-0.20207,-0.19801,0
1704359045457100171,-0.20335,-0.19672,-0.20335,-0.19672,0
1704359045957255480,-0.20498,-0.19506,-0.20498,-0.19506,0
1704359046457289213,-0.20696,-0.19303,-0.20696,-0.19303,0
1704359046957392881,-0.20928,-0.19064,-0.20928,-0.19064,0
1704359047457556419,-0.21189,-0.18793,-0.21189,-0.18793,0
1704359047957577130,-0.21476,-0.18492,-0.21476,-0.18492,0
1704359048457665210,-0.21783,-0.18167,-0.21783,-0.18167,0
1704359048957997218,-0.22105,-0.17824,-0.22105,-0.17824,0
1704359049457901195,-0.22435,-0.1747,-0.22435,-0.1747,0
1704359049957996691,-0.22767,-0.1711,-0.22767,-0.1711,0
1704359050458091725,-0.23094,-0.16751,-0.23094,-0.16751,0
1704359050958184309,-0.23412,-0.16402,-0.23412,-0.16402,0
1704359051458232723,-0.23714,-0.16068,-0.23714,-0.16068,0
1704359051958329278,-0.23995,-0.15756,-0.23995,-0.15756,0
1704359052458500163,-0.24252,-0.1547,-0.24252,-0.1547,0
1704359052958536493,-0.24482,-0.15214,-0.24482,-0.15214,0
1704359053458656506,-0.24682,-0.14993,-0.24682,-0.14993,0
1704359053958749837,-0.24851,-0.14806,-0.24851,-0.14806,0
1704359054459936338,-0.24988,-0.14656,-0.24988,-0.14656,0
1704359054959319122,-0.25095,-0.14542,-0.25095,-0.14542,0
1704359055459473656,-0.25172,-0.1446,-0.25172,-0.1446,0
1704359055959643358,-0.25224,-0.14408,-0.25224,-0.14408,0
1704359056460003260,-0.25253,-0.14381,-0.25253,-0.14381,0
1704359056959776774,-0.25265,-0.14372,-0.25265,-0.14372,0
1704359057460114989,-0.25268,-0.14372,-0.25268,-0.14372,0
1704359057960138931,-0.25268,-0.14372,-0.25268,-0.14372,0
1704359058460253376,-0.25268,-0.14372,-0.25268,-0.14372,0
1704359058960329413,-0.25268,-0.14372,-0.25269,-0.14373,0
1704359059460441578,-0.25267,-0.14371,-0.25269,-0.14374,0
1704359059960602572,-0.25265,-0.14369,-0.25271,-0.14376,0
1704359060460686656,-0.25262,-0.14365,-0.25274,-0.14379,0
1704359060960706412,-0.25258,-0.1436,-0.25278,-0.14384,0
1704359061460833831,-0.25252,-0.14353,-0.25284,-0.14391,0
1704359061960952777,-0.25245,-0.14344,-0.25291,-0.14401,0
1704359062461094616,-0.25235,-0.14332,-0.25301,-0.14413,0
1704359062961137272,-0.25224,-0.14317,-0.25312,-0.14428,0
1704359063461269921,-0.2521,-0.14299,-0.25326,-0.14446,0
1704359063961397197,-0.25193,-0.14278,-0.25343,-0.14467,0
1704359064461462856,-0.25173,-0.14253,-0.25362,-0.14492,0
1704359064961576460,-0.25151,-0.14224,-0.25384,-0.14522,0
1704359065461705570,-0.25125,-0.14192,-0.25409,-0.14555,0
1704359065961862899,-0.25096,-0.14155,-0.25438,-0.14593,0
1704359066461954054,-0.25063,-0.14113,-0.25469,-0.14636,0
1704359066962125454,-0.25027,-0.14067,-0.25504,-0.14683,0
1704359067462240556,-0.24986,-0.14016,-0.25543,-0.14736,0
1704359067962262625,-0.24942,-0.1396,-0.25585,-0.14794,0
1704359068462348848,-0.24893,-0.13899,-0.2563,-0.14858,0
1704359068962428929,-0.2484,-0.13833,-0.2568,-0.14928,0
1704359069462580188,-0.24782,-0.13762,-0.25733,-0.15003,0
1704359069962644700,-0.2472,-0.13685,-0.2579,-0.15085,0
1704359070462740428,-0.24653,-0.13604,-0.2585,-0.15173,0
1704359070962849064,-0.2458,-0.13517,-0.25914,-0.15268,0
1704359071463016016,-0.2448,-0.13514,-0.26034,-0.15334,0
1704359071964084002,-0.24359,-0.13536,-0.26174,-0.15385,0
1704359072463242992,-0.24226,-0.1356,-0.2632,-0.15434,0
1704359072963335099,-0.24084,-0.13585,-0.26473,-0.15486,0
1704359073463907005,-0.23933,-0.13612,-0.26631,-0.15543,0
1704359073963508541,-0.23775,-0.1364,-0.26794,-0.15604,0
1704359074463609711,-0.23607,-0.13669,-0.26962,-0.1567,0
1704359074963703055,-0.23432,-0.13699,-0.27134,-0.15743,0
1704359075463915148,-0.23248,-0.1373,-0.27309,-0.15821,0
1704359075963910535,-0.23056,-0.13762,-0.27487,-0.15906,0
1704359076464024672,-0.22855,-0.13795,-0.27667,-0.15998,0
1704359076964144339,-0.22647,-0.13828,-0.27848,-0.16098,0
1704359077464861787,-0.22431,-0.13862,-0.28029,-0.16205,0
1704359077964332829,-0.22207,-0.13895,-0.28209,-0.1632,0
1704359078464516330,-0.21976,-0.13929,-0.28387,-0.16445,0
1704359078964545202,-0.21738,-0.13961,-0.28561,-0.16578,0
1704359079464691534,-0.21493,-0.13993,-0.28731,-0.16721,0
1704359079964796507,-0.21241,-0.14023,-0.28895,-0.16874,0
1704359080465132667,-0.20984,-0.14051,-0.29051,-0.17037,0
1704359080965026821,-0.20722,-0.14077,-0.29199,-0.17211,0
1704359081465145774,-0.20454,-0.141,-0.29336,-0.17396,0
1704359081965197387,-0.20183,-0.1412,-0.29461,-0.17594,0
1704359082466873334,-0.19907,-0.14136,-0.29572,-0.17803,0
1704359082965667809,-0.19629,-0.14147,-0.29668,-0.18024,0
1704359083465734163,-0.19349,-0.14154,-0.29747,-0.18259,0
1704359083965871373,-0.19067,-0.14156,-0.29806,-0.18506,0
1704359084465967200,-0.18785,-0.14151,-0.29845,-0.18767,0
1704359084966050298,-0.18503,-0.14141,-0.29862,-0.19041,0
1704359085466140105,-0.18222,-0.14124,-0.29854,-0.19329,0
1704359085966212463,-0.17943,-0.14099,-0.2982,-0.1963,0
1704359086466327193,-0.17667,-0.14068,-0.29759,-0.19946,0
1704359086966371792,-0.17395,-0.14029,-0.29668,-0.20276,0
1704359087466624143,-0.17128,-0.13982,-0.29547,-0.20619,0
1704359087966582101,-0.16867,-0.13927,-0.29394,-0.20976,0
1704359088466794672,-0.16613,-0.13864,-0.29208,-0.21346,0
1704359088966789915,-0.16368,-0.13794,-0.28988,-0.21729,0
1704359089466907524,-0.16133,-0.13716,-0.28733,-0.22124,0
1704359089967079082,-0.15908,-0.13632,-0.28442,-0.22531,0
1704359090467092819,-0.15695,-0.13542,-0.28116,-0.22948,0
1704359090967214180,-0.15495,-0.13446,-0.27752,-0.23375,0
1704359091467345471,-0.1531,-0.13347,-0.27352,-0.2381,0
1704359091967405405,-0.15139,-0.13244,-0.26916,-0.24251,0
1704359092467635439,-0.14955,-0.13219,-0.2649,-0.24678,0
1704359092969663891,-0.14695,-0.134,-0.26152,-0.25047,0
1704359093468696537,-0.14382,-0.13682,-0.25847,-0.25376,0
1704359093968659049,-0.14038,-0.1402,-0.25551,-0.25678,0
1704359094469444944,-0.1368,-0.14391,-0.25255,-0.25962,0
1704359094968986420,-0.1332,-0.14783,-0.24953,-0.26233,0
1704359095469117290,-0.13177,-0.15107,-0.24589,-0.26613,0
1704359095969174939,-0.1329,-0.15327,-0.24133,-0.27114,0
1704359096469294933,-0.13404,-0.15532,-0.23647,-0.27584,0
1704359096969445299,-0.13516,-0.15751,-0.23148,-0.28018,0
1704359097469507171,-0.13624,-0.1599,-0.22645,-0.28415,0
1704359097969604344,-0.13727,-0.16253,-0.22142,-0.28769,0
1704359098469750897,-0.13822,-0.16539,-0.2164,-0.29079,0
1704359098969865216,-0.13908,-0.1685,-0.21143,-0.2934,0
1704359099469935931,-0.13983,-0.17185,-0.20651,-0.29551,0
1704359099969977902,-0.14046,-0.17543,-0.20169,-0.2971,0
1704359100470180462,-0.14095,-0.17925,-0.19696,-0.29813,0
1704359100970221326,-0.1413,-0.18329,-0.19236,-0.2986,0
1704359101470629878,-0.14151,-0.18755,-0.18789,-0.29848,0
1704359101970437292,-0.14155,-0.19201,-0.18358,-0.29777,0
1704359102470575282,-0.14145,-0.19668,-0.17943,-0.29647,0
1704359102970651527,-0.14119,-0.20154,-0.17548,-0.29458,0
1704359103470695949,-0.14079,-0.20657,-0.17173,-0.2921,0
1704359103970821971,-0.14024,-0.21176,-0.16819,-0.28904,0
1704359104470947628,-0.13957,-0.21708,-0.16488,-0.28541,0
1704359104971040617,-0.1388,-0.22252,-0.16181,-0.28124,0
1704359105471249784,-0.13793,-0.22805,-0.159,-0.27654,0
1704359105971319091,-0.13699,-0.23364,-0.15646,-0.27134,0
1704359106471428332,-0.13601,-0.23926,-0.15418,-0.26567,0
1704359106971551056,-0.13676,-0.24442,-0.15149,-0.26058,0
1704359107471684263,-0.13959,-0.24889,-0.14801,-0.25637,0
1704359107972036645,-0.14342,-0.25286,-0.14402,-0.2525,0
1704359108472173618,-0.14778,-0.25649,-0.13979,-0.24875,0
1704359108972311663,-0.15243,-0.25985,-0.13551,-0.24503,0
1704359109472357710,-0.1554,-0.26567,-0.13601,-0.24008,0
1704359109973317492,-0.15787,-0.27134,-0.13699,-0.23463,0
1704359110472649813,-0.16038,-0.27654,-0.13793,-0.22904,0
1704359110972705810,-0.16306,-0.28124,-0.1388,-0.22345,0
1704359111473035382,-0.16598,-0.28541,-0.13957,-0.21793,0
1704359111972960737,-0.16912,-0.28904,-0.14024,-0.21251,0
1704359112473083132,-0.17249,-0.2921,-0.14079,-0.20721,0
1704359112973834813,-0.17607,-0.29458,-0.14119,-0.20205,0
1704359113473250663,-0.17985,-0.29647,-0.14145,-0.19706,0
1704359113973339711,-0.18382,-0.29777,-0.14155,-0.19225,0
1704359114473417838,-0.18797,-0.29848,-0.14151,-0.18763,0
1704359114973533647,-0.19229,-0.2986,-0.1413,-0.18322,0
1704359115473650112,-0.19675,-0.29813,-0.14095,-0.17902,0
1704359115973765340,-0.20134,-0.2971,-0.14046,-0.17505,0
1704359116474012445,-0.20604,-0.29551,-0.13983,-0.17131,0
1704359116974046972,-0.21084,-0.2934,-0.13908,-0.16781,0
1704359117474128364,-0.21571,-0.29079,-0.13822,-0.16455,0
1704359117974168684,-0.22065,-0.28769,-0.13727,-0.16155,0
1704359118474279216,-0.22561,-0.28415,-0.13624,-0.15879,0
1704359118974371507,-0.23059,-0.28018,-0.13516,-0.15629,0
1704359119474626286,-0.23556,-0.27584,-0.13404,-0.15405,0
1704359119974647383,-0.24049,-0.27114,-0.1329,-0.15205,0
1704359120474702314,-0.24535,-0.26618,-0.13185,-0.15028,0
1704359120974853318,-0.24946,-0.26244,-0.13338,-0.14772,0
1704359121475048912,-0.25298,-0.2592,-0.1361,-0.14458,0
1704359121975000715,-0.25611,-0.25618,-0.13941,-0.14116,0
1704359122475128255,-0.25896,-0.25325,-0.14302,-0.13764,0
1704359122975196391,-0.2616,-0.25036,-0.14678,-0.13414,0
1704359123475372372,-0.26445,-0.2473,-0.15034,-0.13141,0
1704359123975512341,-0.26916,-0.24324,-0.15246,-0.13244,0
1704359124475585153,-0.27352,-0.23891,-0.15425,-0.13347,0
1704359124975679416,-0.27752,-0.23455,-0.15606,-0.13446,0
1704359125475796551,-0.28116,-0.23024,-0.15797,-0.13542,0
1704359125975940792,-0.28442,-0.22601,-0.16,-0.13632,0
1704359126475982991,-0.28733,-0.22188,-0.16214,-0.13716,0
1704359126976152061,-0.28988,-0.21786,-0.16439,-0.13794,0
1704359127476314022,-0.29208,-0.21396,-0.16673,-0.13864,0
1704359127976389661,-0.29394,-0.21019,-0.16917,-0.13927,0
1704359128476474827,-0.29547,-0.20654,-0.17168,-0.13982,0
1704359128976537020,-0.29668,-0.20304,-0.17426,-0.14029,0
1704359129476627427,-0.29759,-0.19967,-0.17689,-0.14068,0
1704359129976718752,-0.2982,-0.19644,-0.17957,-0.14099,0
1704359130478958451,-0.29854,-0.19336,-0.18229,-0.14124,0
1704359130978912169,-0.29862,-0.19041,-0.18503,-0.14141,0
1704359131478975961,-0.29845,-0.18761,-0.18779,-0.14151,0
1704359131979015570,-0.29806,-0.18494,-0.19056,-0.14156,0
1704359132479146893,-0.29747,-0.18241,-0.19333,-0.14154,0
1704359132979254673,-0.29668,-0.18002,-0.19609,-0.14147,0
1704359133479362852,-0.29572,-0.17775,-0.19883,-0.14136,0
1704359133979454921,-0.29461,-0.17562,-0.20155,-0.1412,0
1704359134479542983,-0.29336,-0.17361,-0.20424,-0.141,0
1704359134979665076,-0.29199,-0.17172,-0.20689,-0.14077,0
1704359135479750270,-0.29051,-0.16995,-0.2095,-0.14051,0
1704359135980795206,-0.28895,-0.16829,-0.21205,-0.14023,0
1704359136480172365,-0.28731,-0.16674,-0.21456,-0.13993,0
1704359136980319418,-0.28561,-0.16529,-0.217,-0.13961,0
1704359137480458522,-0.28387,-0.16395,-0.21938,-0.13929,0
1704359137980513336,-0.28209,-0.1627,-0.22169,-0.13895,0
1704359138480555961,-0.28029,-0.16153,-0.22393,-0.13862,0
1704359138980676754,-0.27848,-0.16046,-0.22609,-0.13828,0
1704359139480895446,-0.27667,-0.15947,-0.22818,-0.13795,0
1704359139980969103,-0.27487,-0.15855,-0.23019,-0.13762,0
1704359140480943965,-0.27309,-0.1577,-0.23212,-0.1373,0
1704359140981080205,-0.27134,-0.15693,-0.23397,-0.13699,0
1704359141481146368,-0.26962,-0.15621,-0.23574,-0.13669,0
1704359141981230255,-0.26794,-0.15556,-0.23742,-0.1364,0
1704359142481364346,-0.26631,-0.15496,-0.23902,-0.13612,0
1704359142981420069,-0.26473,-0.15442,-0.24054,-0.13585,0
1704359143481562457,-0.2632,-0.15392,-0.24198,-0.1356,0
1704359143981696178,-0.26174,-0.15347,-0.24334,-0.13536,0
1704359144481845736,-0.26034,-0.15306,-0.24461,-0.13514,0
1704359144981867622,-0.25926,-0.15251,-0.2457,-0.13538,0
1704359145481979773,-0.25844,-0.15182,-0.24659,-0.13593,0
1704359145982289988,-0.25775,-0.15107,-0.24734,-0.13661,0
1704359146482262598,-0.25715,-0.15031,-0.248,-0.13732,0
1704359146982396773,-0.25661,-0.14957,-0.24859,-0.13801,0
1704359147483058664,-0.25612,-0.14887,-0.24912,-0.13868,0
1704359147983097511,-0.25567,-0.14822,-0.2496,-0.1393,0
1704359148483251755,-0.25526,-0.14762,-0.25003,-0.13988,0
1704359148983389256,-0.25489,-0.14707,-0.25042,-0.14042,0
1704359149483457079,-0.25456,-0.14658,-0.25077,-0.1409,0
1704359149983588766,-0.25425,-0.14613,-0.25108,-0.14134,0
1704359150483672798,-0.25398,-0.14573,-0.25136,-0.14173,0
1704359150983845780,-0.25374,-0.14537,-0.25161,-0.14208,0
1704359151483951957,-0.25354,-0.14506,-0.25182,-0.14239,0
1704359151983989675,-0.25335,-0.14479,-0.252,-0.14266,0
1704359152484156250,-0.2532,-0.14456,-0.25216,-0.14289,0
1704359152984266193,-0.25307,-0.14436,-0.25229,-0.14309,0
1704359153484354999,-0.25296,-0.1442,-0.2524,-0.14325,0
1704359153984542260,-0.25288,-0.14407,-0.25248,-0.14338,0
1704359154484569602,-0.25281,-0.14396,-0.25255,-0.14349,0
1704359154984723628,-0.25276,-0.14388,-0.2526,-0.14357,0
1704359155484794516,-0.25272,-0.14382,-0.25264,-0.14363,0
1704359155984927924,-0.2527,-0.14378,-0.25266,-0.14367,0
1704359156484927823,-0.25269,-0.14375,-0.25268,-0.1437,0
1704359156985086055,-0.25268,-0.14374,-0.25268,-0.14371,0
1704359157485196993,-0.25268,-0.14373,-0.25268,-0.14372,0
1704359157985309087,-0.25268,-0.14373,-0.25268,-0.14372,0
1704359158485351367,-0.25268,-0.14372,-0.25268,-0.14372,0
1704359158985462780,-0.25268,-0.14372,-0.25268,-0.14372,0
1704359159485701028,-0.25266,-0.14371,-0.25266,-0.14371,0
1704359159985685262,-0.25259,-0.14367,-0.25259,-0.14367,0
1704359160485793531,-0.25247,-0.1436,-0.25247,-0.1436,0
1704359160985927340,-0.25228,-0.14349,-0.25228,-0.14348,0
1704359161485982129,-0.25199,-0.14331,-0.25199,-0.14331,0
1704359161986076080,-0.2516,-0.14307,-0.2516,-0.14307,0
1704359162486198597,-0.25109,-0.14275,-0.25109,-0.14275,0
1704359162986296324,-0.25044,-0.14235,-0.25044,-0.14235,0
1704359163486387341,-0.24965,-0.14185,-0.24965,-0.14185,0
1704359163986539003,-0.2487,-0.14125,-0.2487,-0.14125,0
1704359164486732167,-0.24758,-0.14055,-0.24758,-0.14055,0
1704359164986809248,-0.24629,-0.13974,-0.24629,-0.13974,0
1704359165486835385,-0.24483,-0.13881,-0.24483,-0.13881,0
1704359165986926805,-0.24317,-0.13776,-0.24317,-0.13776,0
1704359166487021840,-0.24132,-0.13658,-0.24132,-0.13658,0
1704359166987130209,-0.23967,-0.13592,-0.23967,-0.13592,0
1704359167488081990,-0.23855,-0.13628,-0.23855,-0.13628,0
1704359167987413620,-0.23733,-0.13665,-0.23733,-0.13665,0
1704359168487814383,-0.23599,-0.13701,-0.23599,-0.13701,0
1704359168987589229,-0.23454,-0.13735,-0.23454,-0.13735,0
1704359169487695794,-0.23297,-0.13767,-0.23297,-0.13767,0
1704359169987864984,-0.23128,-0.13796,-0.23128,-0.13796,0
1704359170487957100,-0.22946,-0.1382,-0.22946,-0.1382,0
1704359170988084917,-0.22752,-0.1384,-0.22752,-0.1384,0
1704359171488144739,-0.22546,-0.13853,-0.22546,-0.13853,0
1704359171988277726,-0.22326,-0.13859,-0.22326,-0.13859,0
1704359172488413148,-0.22093,-0.13856,-0.22093,-0.13856,0
1704359172988513466,-0.21847,-0.13845,-0.21847,-0.13845,0
1704359173488607524,-0.21588,-0.13824,-0.21588,-0.13824,0
1704359173988691597,-0.21316,-0.13792,-0.21316,-0.13792,0
1704359174488782571,-0.21031,-0.13749,-0.21031,-0.13749,0
1704359174988862635,-0.20732,-0.13693,-0.20732,-0.13693,0
1704359175488976886,-0.20421,-0.13624,-0.20421,-0.13624,0
1704359175989086370,-0.20097,-0.13542,-0.20097,-0.13542,0
1704359176489199321,-0.1976,-0.13446,-0.1976,-0.13446,0
1704359176989335172,-0.1941,-0.13336,-0.1941,-0.13336,0
1704359177489384037,-0.19049,-0.13211,-0.19049,-0.13211,0
1704359177989541097,-0.18675,-0.13072,-0.18675,-0.13072,0
1704359178489645263,-0.18291,-0.12917,-0.18291,-0.12917,0
1704359178989689445,-0.17895,-0.12748,-0.17895,-0.12748,0
1704359179489779938,-0.17488,-0.12564,-0.17488,-0.12564,0
1704359179989902751,-0.17072,-0.12366,-0.17072,-0.12366,0
1704359180490022539,-0.16646,-0.12153,-0.16646,-0.12153,0
1704359180992175191,-0.16211,-0.11926,-0.16211,-0.11926,0
1704359181492131504,-0.15768,-0.11686,-0.15768,-0.11686,0
1704359181992253844,-0.15317,-0.11433,-0.15317,-0.11433,0
1704359182493222451,-0.14859,-0.11168,-0.14859,-0.11168,0
1704359182992482005,-0.14395,-0.10891,-0.14395,-0.10891,0
1704359183492557075,-0.13927,-0.10603,-0.13927,-0.10603,0
1704359183992647539,-0.13453,-0.10305,-0.13453,-0.10305,0
1704359184492738524,-0.12976,-0.09998,-0.12976,-0.09998,0
1704359184992900342,-0.12496,-0.09682,-0.12496,-0.09682,0
1704359185493032624,-0.12015,-0.09359,-0.12015,-0.09359,0
1704359185993055852,-0.11532,-0.09029,-0.11532,-0.09029,0
1704359186493198722,-0.11049,-0.08694,-0.11049,-0.08694,0
1704359186993328883,-0.10568,-0.08354,-0.10568,-0.08354,0
1704359187493451959,-0.10088,-0.0801,-0.10088,-0.0801,0
1704359187993480536,-0.09611,-0.07664,-0.09611,-0.07664,0
1704359188493588114,-0.09138,-0.07316,-0.09138,-0.07316,0
1704359188993657034,-0.08669,-0.06968,-0.08669,-0.06968,0
1704359189493759067,-0.08206,-0.0662,-0.08206,-0.0662,0
1704359189993902926,-0.0775,-0.06274,-0.0775,-0.06274,0
